time(s),altitude(m),speed(m/s),acceleration(m/s/s),body drag(N),airfoil drag(N),atm pressure(Kg/m2),air temp(K),fin deflection(°),z agnular rate(rad/s),z angle(rad),z torque(N/m2)
0.05,399.9754825,-0.49035000000000006,-9.807,0.0,-0.0,2.040346940659153,294.22999999999996,-1,0.00017661751158621348,8.830875579310675e-06,8.830875579310673e-06
0.1,399.9264573004967,-0.9805039900664186,-9.803079801328371,0.0009811347482507457,-1.085080343623749e-06,2.040263697396347,294.23024027149995,-1,0.0008827763760163982,5.296969438013059e-05,3.530794322150923e-05
0.15000000000000002,399.8529537841147,-1.4700703276405487,-9.791326751482602,0.003922650362003242,-4.338232653880593e-06,2.0400972645181645,294.23072071845513,-1,0.002470023290301779,0.00017647085889521954,7.936234571426905e-05
0.2,399.7550208368023,-1.9586589462474258,-9.77177237213754,0.008816657697592703,-9.750731977614051e-06,2.039847782462562,294.23144105291567,-1,0.0052873216448272465,0.00044083694113658187,0.00014086491772627338
0.25,399.63272670212024,-2.445882693641838,-9.744474947888241,0.01564856947353435,-1.7306445594589465e-05,2.0395154780303453,294.2324007957993,-1,0.009679862476844745,0.0009248300649788192,0.00021962704160087494
0.3,399.48615876957575,-2.9313586508894174,-9.709519144951592,0.02439719570066006,-2.6981938557905875e-05,2.0391006636381386,294.2335992783192,-1,0.01598790139798479,0.0017242251348780586,0.0003154019460570023
0.35,399.3154232984393,-3.4147094227287185,-9.667015436786018,0.03503488743617351,-3.874663267796827e-05,2.038603736257254,294.23503564405814,-1,0.02454563004338097,0.0029515066370471073,0.000427886432269809
0.39999999999999997,399.1206450789443,-3.8955643899005796,-9.617099343437227,0.047527727157759055,-5.256301706564064e-05,2.038025176046142,294.23670885167525,-1,0.03568009017211588,0.004735511145652902,0.0005567230064367456
0.44999999999999996,398.90196703321493,-4.37356091458714,-9.559930493731196,0.061835763474910856,-6.838690770989329e-05,2.037365544686425,294.2386176782263,-1,0.04971013803124884,0.007221018047215344,0.0007015023929566479
0.49999999999999994,398.65954975868164,-4.84834549066616,-9.495691521580403,0.0779132873578711,-8.616775297161167e-05,2.0366254834347157,294.24076072307446,-1,0.06694546598829787,0.010568291346630237,0.0008617663978524512
0.5499999999999999,398.3935710171243,-5.319574831146458,-9.424586809605948,0.09570914657985236,-0.00010584898133916746,2.0358057109044485,294.2431364123649,-1,0.08768568775093621,0.014952575734177048,0.0010370110881319171
0.6,398.10422517282956,-5.786916885895106,-9.346841094972982,0.11516709464407696,-0.00012736838732227507,2.034907020593865,294.24574300403214,-1,0.11221949274034271,0.020563550371194183,0.0012266902494703247
0.65,397.7917225836504,-6.250051783583195,-9.262697953761766,0.13622617011052482,-0.00015065855096623134,2.033930278177905,294.24857859330626,-1,0.14082387437960875,0.027604744090174622,0.0014302190819633024
0.7000000000000001,397.45628894901796,-6.708672692649756,-9.172418181331228,0.15882110195334798,-0.00017564728615462156,2.0328764185832555,294.2516411186802,-1,0.17376343621498508,0.03629291590092387,0.0016469780917688162
0.7500000000000001,397.0981646191681,-7.16248659699787,-9.076278086962272,0.18288273637207064,-0.00020225811263871628,2.031746442867001,294.2549283682996,-1,0.2112897789199729,0.04685740484692252,0.0018763171352493906
0.8000000000000002,396.7176038700142,-7.611214983077292,-8.974567721588432,0.20833848034948008,-0.0002304107465877755,2.0305414149203176,294.25843798673213,-1,0.25364097035470057,0.059539453364657546,0.002117559571736385
0.8500000000000002,396.3148741482163,-8.054594435958924,-8.867589057632646,0.2351127571962346,-0.00026002160439599265,2.0292624580193865,294.26216748207383,-1,0.30104109997967965,0.07459150836364153,0.0023700064812489543
0.9000000000000002,395.8902552910686,-8.492377142952899,-8.75565413987948,0.26312746934463677,-0.0002910043145066123,2.02791075124619,294.2661142333475,-1,0.35369991806722323,0.09227650426700269,0.0026329409043771776
0.9500000000000003,395.44403872585616,-8.924331304249703,-8.639083225936075,0.29230246374809926,-0.00032327023211779814,2.0264875258021093,294.2702754981475,-1,0.4118125593279168,0.11286713223339853,0.0029056320630346803
1.0000000000000002,394.9765266533082,-9.350241450959366,-8.518202934193262,0.3225559954034972,-0.0003567289518125179,2.0249940612372597,294.2746484204866,-1,0.4755593497847591,0.1366450997226365,0.003187339522842113
1.0500000000000003,394.48803121971946,-9.769908671775138,-8.393344416315411,0.3538051847345465,-0.000391288813399066,2.023431681618259,294.27923003879755,-1,0.5451056949937828,0.16390038447232563,0.003477317260451184
1.1000000000000003,393.97887368220523,-10.183150750284785,-8.264841570192932,0.385966464848319,-0.00042685739655183927,2.021801751656745,294.28401729404675,-1,0.6206020470354805,0.19493048682409966,0.0037748176020848873
1.1500000000000004,393.4493835714209,-10.589802215685634,-8.133029308016974,0.4189560149959512,-0.00046334200019471967,2.0201056728202764,294.28900703791436,-1,0.7021839470929547,0.2300396841787474,0.004079095002873709
1.2000000000000004,392.89989785590484,-10.989714310321412,-7.998241892715565,0.4526901769240714,-0.0005006501029625456,2.018344879446501,294.2941960410001,-1,0.7899721398955288,0.26953829117352385,0.004389409640128708
1.2500000000000004,392.3307601120026,-11.382754878044372,-7.860811354459175,0.4870858511867063,-0.0005386898014999906,2.0165208348804624,294.2995810010121,-1,0.884072755844109,0.3137419289657293,0.0047050307974290115
1.3000000000000005,391.74231970310706,-11.76880817791118,-7.721065997336195,0.5220608708897533,-0.0005773702238021174,2.0146350276538554,294.3051585509024,-1,0.9845775562488005,0.3629708067781693,0.00502524002023457
1.3500000000000005,391.1349309716999,-12.147774628143628,-7.57932900464894,0.5575343507530225,-0.0006166019152575393,2.0126889677237774,294.3109252669095,-1,1.0915642368005938,0.417549018618199,0.005349334027589665
1.4000000000000006,390.50895244741866,-12.519570485624666,-7.435917149620742,0.593427009790329,-0.0006562971955146169,2.010684182787242,294.3168776764773,-1,1.2050967841663796,0.47780385782651796,0.005676627368289288
1.4500000000000006,389.86474607409576,-12.884127466457878,-7.291139616664259,0.6296614663186806,-0.0006963704847451755,2.0086222146863077,294.32301226601527,-1,1.3252258804379073,0.5440651518484133,0.006006454813576387
1.5000000000000007,389.202676458431,-13.241392313296236,-7.145296936767167,0.6661625044065297,-0.0007367385983214206,2.00650461591723,294.32932548847384,-1,1.451989350077262,0.6166646193522765,0.006338173481967737
1.5500000000000007,388.5231101426686,-13.591326315247619,-6.998680039027656,0.7028573112524295,-0.0007773210093434998,2.0043329462555963,294.3358137707074,-1,1.5854126439797354,0.6959352515512632,0.006671164695123667
1.6000000000000008,387.82641490335885,-13.93390478619455,-6.8515694189386345,0.7396756853441934,-0.0008180400788519309,2.0021087695078696,294.3424735206018,-1,1.7255093553146044,0.7822107193169935,0.007004835566743455
1.6500000000000008,387.1129590779924,-14.269116507329182,-6.704234422692633,0.7765502155807682,-0.0008588212539264081,1.9998336503983403,294.34930113394705,-1,1.8722817618997,0.8758248074119785,0.007338620329254785
1.7000000000000008,386.383110921012,-14.59696313960778,-6.556932645571967,0.8134164318412149,-0.0008995932342067044,1.9975091515989696,294.3562930010356,-1,2.0257213900107263,0.9771108769125149,0.007671981405551304
1.7500000000000009,385.6372379904281,-14.917458611678258,-6.409909441409551,0.8502129277552822,-0.0009402881076700811,1.9951368309082376,294.36344551297407,-1,2.18580959471481,1.0864013566482553,0.008004410235204196
1.800000000000001,384.87570656599627,-15.230628488636302,-6.263397539160872,0.8868814566665432,-0.0009808414567611685,1.9927182385836926,294.3707550676938,-1,2.3525181520433343,1.204027264250422,0.008335427866426203
1.850000000000001,384.0988810996599,-15.53650932672726,-6.117616761819118,0.9233670019814147,-0.0010211924361940596,1.9902549148316162,294.3782180756532,-1,2.5258098585753657,1.3303177571791902,0.00866458532660157
1.900000000000001,383.30712369871793,-15.835148018838916,-5.9727738422331385,0.9596178232656478,-0.0010612838239324601,1.987748387455965,294.3858309652233,-1,2.7056391342837625,1.4655997138933783,0.00899146378541985
1.950000000000001,382.50079364195136,-16.126601135331345,-5.829062329848604,0.995585479584852,-0.001101062047003007,1.985200169667588,294.3935901877525,-1,2.8919526247953242,1.6101973451331446,0.009315674525578084
2.000000000000001,381.68024692872984,-16.410934264430413,-5.686662581981367,1.031224831688569,-0.0011404771839107315,1.9826117580536409,294.40149222230883,-1,3.084689799528552,1.7644318351095722,0.00963685873666137
2.0500000000000007,380.84583586092594,-16.688221356077488,-5.545741832941534,1.0664940247101227,-0.0011794829455060586,1.9799846307061226,294.4095335800984,-1,3.2837835424924675,1.9286210122341956,0.00995468714819579
2.1000000000000005,379.9979086572867,-16.958544072784925,-5.406454334148733,1.101354453099019,-0.001218036636201995,1.977320245507569,294.4177108085629,-1,3.489160732852734,2.1030790488768325,0.01026885951801332
2.1500000000000004,379.1368090997517,-17.221991150700127,-5.268941558304023,1.1357707095214553,-0.0012560990974609415,1.9746200385711101,294.4260204951586,-1,3.700742812692711,2.288116189511468,0.010579103991998842
2.2,378.26287621106496,-17.478657773735204,-5.1333324607015465,1.1697105194600792,-0.001293634635465671,1.9718854228313938,294.4344592708224,-1,3.918446339713327,2.4840385064971344,0.010885176351030803
2.25,377.376443962901,-17.72864496327834,-4.999743790862779,1.2031446632191667,-0.001330610934861404,1.9691177867822427,294.44302381313156,-1,4.142183522923414,2.691147682643305,0.01118685916050435
2.3,376.4778410136175,-17.972058985670703,-4.868280447847201,1.2360468869986085,-0.0013669989604085922,1.9663184933563669,294.45171084916353,-1,4.371862739668689,2.9097408196267396,0.011483960837263728
2.3499999999999996,375.56739047465186,-18.209010779311942,-4.739035872824817,1.2683938046421177,-0.0014027728483219147,1.9634888789419982,294.4605171580665,-1,4.607389032630578,3.1401102712582682,0.011776314648094421
2.3999999999999995,374.64540970450435,-18.439615402950825,-4.612092472777618,1.3001647915945886,-0.0014379097889930267,1.9606302525309414,294.4694395733484,-1,4.848664585693738,3.382543500542955,0.012063777653158043
2.4499999999999993,373.712210129183,-18.663991506426772,-4.4875220695189775,1.3313418725229613,-0.0014723899027054995,1.9577438949922161,294.47847498489585,-1,5.0955891778320375,3.637322959434557,0.012346229606914949
2.499999999999999,372.76809708794025,-18.882260824855415,-4.365386368572885,1.3619096039666316,-0.0015061961098527155,1.9548310584652588,294.487620340734,-1,5.3480606143959095,3.9047259901543523,0.012623571828193594
2.549999999999999,371.8133697030904,-19.09454769699691,-4.245737442829891,1.391854953289593,-0.0015393139970656833,1.9518929658664674,294.49687264853816,-1,5.605975135398844,4.185024746924294,0.012895726050146737
2.5999999999999988,370.84832077267487,-19.300978608311222,-4.128618226286256,1.421167175108986,-0.0015717316805499036,1.9489308105027796,294.5062289769097,-1,5.86922780059689,4.478486136954139,0.013162633259902278
2.6499999999999986,369.8732366847254,-19.501681758989704,-4.014063013569649,1.4498376862754085,-0.001603439667820557,1.9459457557859159,294.5156864564278,-1,6.1377128513325445,4.785371779520766,0.013424252536782736
2.6999999999999984,368.8883973518725,-19.696786657057345,-3.902097961352829,1.477859940380708,-0.00163443071891512,1.9429389350409367,294.5252422804897,-1,6.411324049273464,5.105937981984439,0.013680559897045981
2.7499999999999982,367.8940761650493,-19.886423736464874,-3.7927415881506112,1.5052293026704007,-0.0016646997080534732,1.9399114514027929,294.5348937059516,-1,6.689954992317479,5.440435731600313,0.013931547152200737
2.799999999999998,366.8905399650526,-20.070723999933904,-3.686005269380572,1.531942926141466,-0.0016942434866089658,1.9368643777946324,294.5446380535825,-1,6.973499408059128,5.789110702003269,0.014177220787082438
2.849999999999998,365.87804903074357,-20.249818686180923,-3.5818937249403673,1.5579996295130591,-0.0017230607481508275,1.9337987569817676,294.5544727083425,-1,7.261851425320042,6.152203273269271,0.01441760086304569
2.8999999999999977,364.8568570826922,-20.423838961026494,-3.480405496911433,1.5833997776683613,-0.0017511518962195181,1.9307156016953277,294.56439511949867,-1,7.554905824336909,6.529948564486117,0.014652719950843336
2.9499999999999975,363.8272113011025,-20.592915631793367,-3.3815334153374916,1.6081451650810301,-0.0017785189154028806,1.927615894819811,294.5744028005896,-1,7.852558266277397,6.9225764777999865,0.014882622097024383
2.9999999999999973,362.789352356887,-20.757178884310623,-3.285265050345078,1.6322389026599233,-0.0018051652461927102,1.9245005896389509,294.5844933292492,-1,8.1547055028173,7.330311752940852,0.015107361826995165
3.049999999999997,361.7435144547985,-20.916758041769175,-3.191583149171005,1.655685308371268,-0.001831095664018974,1.9213706101345025,294.5946643469025,-1,8.461245566562361,7.75337403126897,0.015327003187253045
3.099999999999997,360.6899253875677,-21.07178134461603,-3.100466056937157,1.6784898019284935,-0.0018563161627826322,1.918226851332804,294.60491355834296,-1,8.772077943136749,8.191977928425807,0.015541618828719352
3.149999999999997,359.6288066000362,-21.222375750629357,-3.011888120266537,1.7006588037765038,-0.001880833843137876,1.91507017969418,294.6152387312018,-1,9.087103725788115,8.646333114715212,0.015751289132568277
3.1999999999999966,358.5603732623221,-21.368666754282625,-2.9258200730653607,1.7221996385393705,-0.0019046568057106586,1.911901433540516,294.6256376953196,-1,9.406225753377528,9.116644402384088,0.01595610137947067
3.2499999999999964,357.48483435109796,-21.51077822448288,-2.8422294040051446,1.7431204430480964,-0.0019277940493825257,1.908721423516566,294.6361083420292,-1,9.729348732632403,9.603111839015709,0.01615614896274373
3.2999999999999963,356.4023927381102,-21.648832259754197,-2.76108070542635,1.7634300790181294,-0.0019502553747168154,1.9055309330808037,294.6466486233592,-1,10.056379345542766,10.105930806292847,0.01635153064551818
3.349999999999996,355.3132452851136,-21.782949059931806,-2.682336003552143,1.7831380504045224,-0.0019720512925580714,1.902330719021882,294.6572565511665,-1,10.387226342776792,10.625292123431686,0.016542349861701305
3.399999999999996,354.2175829444419,-21.913246813434213,-2.6059550700481404,1.8022544254257598,-0.001993192937794739,1.8991215119970097,294.6679301962059,-1,10.721800623981276,11.16138215463075,0.016728714060224206
3.4499999999999957,353.1155908644825,-22.039841599188854,-2.5318957150928147,1.820789763215036,-0.0020136919882395715,1.8959040170887844,294.67866768714447,-1,11.060015305817526,11.714382919921627,0.01691073409181252
3.4999999999999956,352.00744849936746,-22.162847302300566,-2.46011406223424,1.8387550450299917,-0.0020335605885514296,1.8926789143772769,294.68946720952806,-1,11.401785778563696,12.284472208849813,0.01708852363730844
3.5499999999999954,350.89332972223895,-22.282375542570765,-2.390564805404015,1.8561616099280922,-0.002052811279095837,1.8894468595243747,294.7003270047062,-1,11.747029752091603,12.871823696454394,0.017262198676395394
3.599999999999995,349.77340294148905,-22.39853561499771,-2.323201448538901,1.8730210947948944,-0.0020714569296195855,1.8862084843676283,294.711245368722,-1,12.095667292000249,13.476607061054406,0.017431876995432288
3.649999999999995,348.6478312194183,-22.511434441414053,-2.2579765283268856,1.8893453785958751,-0.0020895106775963646,1.8829643975210475,294.72222065117336,-1,12.447620846660019,14.098988103387406,0.017597677732988537
3.699999999999995,347.516772392796,-22.62117653244644,-2.1948418206477607,1.9051465307091455,-0.002106985871085625,1.8797151849805136,294.73325125404966,-1,12.802815265891661,14.73912886668199,0.01775972096158208
3.7499999999999947,346.3803791948454,-22.72786395901246,-2.1337485313204017,1.920436763185835,-0.002123896015935222,1.8764614107316628,294.74433563055055,-1,13.161177811972795,15.39718775728063,0.01791812730405665
3.7999999999999945,345.2387993782153,-22.831596332602494,-2.0746474718007013,1.9352283867769744,-0.0021402547271496017,1.8732036173582884,294.75547228389047,-1,13.52263816363259,16.07331966546226,0.018073017582989775
3.8499999999999943,344.09217583853393,-22.93247079362733,-2.0174892204967723,1.949533770560046,-0.0021560756842390117,1.8699423266494857,294.7666597660935,-1,13.887128413662527,16.767676086145386,0.018224512501496835
3.899999999999994,342.9406467381766,-23.030582007146457,-1.9622242703825163,1.9633653049947322,-0.0021713725903612256,1.8666780402039365,294.77789667678235,-1,14.254583060738247,17.480405239182296,0.01837273235378596
3.949999999999994,341.7843456299103,-23.126022165326358,-1.908803163598047,1.9767353682355535,-0.0021861591350651887,1.8634112400298901,294.78918166196587,-1,14.624938996014704,18.21165218898303,0.018517796763822862
3.999999999999994,340.62340158010966,-23.218880996012693,-1.8571766137267076,1.9896562955287689,-0.0022004489604457046,1.86014238913954,294.80051341282683,-1,14.99813548502431,18.961558963234246,0.018659824450480304
4.049999999999994,339.45793929126796,-23.309245776834395,-1.8072956164340113,2.0021403515220166,-0.002214255630519436,1.8568719321366505,294.8118906645149,-1,15.374114145375778,19.730264670503036,0.01879893301757338
4.099999999999993,338.2880792235534,-23.397201354291656,-1.759111549145251,2.0141997053173224,-0.0022275926036349233,1.8536002957964084,294.8233121949456,-1,15.752818920720108,20.517905616539043,0.018935238767216474
4.149999999999993,337.1139377151877,-23.48283016731294,-1.7125762604256956,2.0258464081013092,-0.002240473207732845,1.850327889636602,294.83477682360916,-1,16.1341960514197,21.324615419110028,0.01906885653497965
4.199999999999993,335.9356271014478,-23.56621227479851,-1.6676421497113871,2.0370923731904305,-0.0022529106182771577,1.8470551064793461,294.84628341039115,-1,16.5181940423271,22.150525121226384,0.019199899545370033
4.249999999999993,334.7532558321128,-23.64742538669951,-1.6242622380200213,2.0479493583336774,-0.0022649178386828723,1.8437823230026733,294.8578308544058,-1,16.904763628051416,22.995763302628955,0.01932847928621588
4.299999999999993,333.5669285872022,-23.726544898212047,-1.5823902302507165,2.058428950120393,-0.002276507683071973,1.8405099002814151,294.86941809284525,-1,17.293857736063153,23.860456189432114,0.019454705400586744
4.3499999999999925,332.3767463908674,-23.803643926694996,-1.5419805696589588,2.0685425503464554,-0.002287692761195171,1.8372381843168883,294.8810440998454,-1,17.68543144796198,24.744727761830212,0.019578685594941376
4.399999999999992,331.18280672332,-23.878793350948484,-1.502988485069773,2.0783013641979204,-0.002298485465363673,1.833967506554969,294.8927078853695,-1,18.079441959207077,25.648699859790565,0.019700525562254743
4.449999999999992,329.9852036306942,-23.95206185251685,-1.465370031367275,2.087716390117423,-0.0023088979592419856,1.8306981843922494,294.90440849411146,-1,18.47584853758581,26.572492286669856,0.019820328918936744
4.499999999999992,328.7840278327589,-24.023515958705556,-1.4290821237741422,2.096798411224824,-0.002318942168359629,1.827430521669995,294.91614500441915,-1,18.87461248067413,27.51622291070356,0.019938197154415884
4.549999999999992,327.5793668284076,-24.09322008702601,-1.3940825664090344,2.105557988169948,-0.002328629772206664,1.824164809155727,294.92791652723895,-1,19.275697072520583,28.480007764329592,0.020054229592322594
