time(s),altitude(m),speed(m/s),acceleration(m/s/s),body drag(N),airfoil drag(N),atm pressure(Kg/m2),air temp(K),fin deflection(°),z agnular rate(rad/s),z angle(rad),z torque(N/m2)
0.05,399.98774125,-0.49035000000000006,-9.807,0.0,-0.0,2.040346940659153,294.22999999999996,-1,0.00017661751158621348,4.415437789655337e-06,8.830875579310673e-06
0.1,399.9509699003483,-0.9805039860678735,-9.803079721357467,0.0009811547631124078,-1.0851024789451294e-06,2.0403053181785387,294.23012013575,-1,0.0008827907718960116,3.090064487671096e-05,3.53086630154899e-05
0.15000000000000002,399.8897055434045,-1.4700702916837742,-9.791326112318016,0.003922810330065785,-4.3384095696412295e-06,2.0401804775627306,294.2304804949766,-1,0.002470102255570266,0.0001147229705633679,7.936557418371273e-05
0.2,399.80398731604566,-1.9586588026711886,-9.771770219748289,0.008817196390670088,-9.75132774213117e-06,2.0399725158651028,294.2310808856746,-1,0.005287571728163175,0.0003086648201567039,0.00014087347362964542
0.25,399.6938737885824,-2.445882295859787,-9.744469863771968,0.015649841909846095,-1.7307852838225312e-05,2.039681616728406,294.23192092430276,-1,0.009680465547102966,0.0006828657520383573,0.00021964469094698955
0.3,399.5594427872114,-2.9313577589797353,-9.709509262398965,0.02439966907422983,-2.698467397120948e-05,2.0393080498012823,294.2330000368719,-1,0.015989130792355397,0.0013246056605248164,0.00031543326226262156
0.35,399.4007911511839,-3.4147076821208198,-9.66699846282169,0.03503913562551635,-3.875133093858959e-05,2.0388521698378677,294.2343174606853,-1,0.024547862519377503,0.002338030493318139,0.0004279365863511052
0.39999999999999997,399.2180344263453,-3.895561311425409,-9.617072586091776,0.04753442390034579,-5.2570423289668616e-05,2.0383144154869006,294.2358722467184,-1,0.035683812035172624,0.0038438223571818923,0.0005567974757897558
0.44999999999999996,399.0113064971563,-4.373555856135986,-9.559890894211538,0.06184567431566308,-6.839786854734013e-05,2.037695307779131,294.23766326262177,-1,0.04971594361144603,0.00597881624834736,0.0007016065788136702
0.49999999999999994,398.78075915973596,-4.84833764067742,-9.495635690828694,0.07792726049931378,-8.618320648719163e-05,2.0369954483240775,294.23968919632784,-1,0.06695404647593552,0.008895566000531898,0.000861905143224474
0.5499999999999999,398.52656163886627,-5.319563194110964,-9.42451106867088,0.09572810277811794,-0.00010586994583784056,2.036215517229321,294.24194856023456,-1,0.08769780827438646,0.012761862369289946,0.001037188089922547
0.6,398.2489000522625,-5.786900270039147,-9.346741518563654,0.1151920163083805,-0.00012739594929387418,2.0353562707574793,294.2444396959391,-1,0.11223595548303276,0.017760206463225427,0.0012269073604323152
0.65,397.94797682574017,-6.250028790854859,-9.262570416314244,0.13625808977377368,-0.00015069385233459911,2.0344185387377736,294.2471607794878,-1,0.14084546548745228,0.024087241987487552,0.0014304755002209758
0.7000000000000001,397.6240100631913,-6.7086417110994505,-9.172258404891817,0.15886109028806958,-0.0001756915110238946,2.0334032217506923,294.25010982710774,-1,0.17379085424153745,0.031953149980712296,0.001647269437704258
0.7500000000000001,397.27723287552357,-7.1624457956084395,-9.076081690179779,0.18293188992878823,-0.0002023124737326522,2.0323112881055603,294.2532847013807,-1,0.21132354259361333,0.04158100990159106,0.0018766344176037934
0.8000000000000002,396.90789267290677,-7.611162309063936,-8.974330269109933,0.2083979091940945,-0.00023047647157738613,2.031143770631972,294.2566831178198,-1,0.25368130352898977,0.05320613105465614,0.00211788804676882
0.8500000000000002,396.51625042481703,-8.054527614524593,-8.867306109213148,0.2351835726190196,-0.000260099922306378,2.0299017633068908,294.2603026518055,-1,0.3010877917426771,0.0670753584364478,0.002370324410684366
0.9000000000000002,396.10257989246765,-8.4922936794518,-8.755321298544134,0.2632107718063525,-0.00029109644238603397,2.0285864177398367,294.26414074583676,-1,0.35375215613525174,0.08344635713339602,0.0026332182196287337
0.9500000000000003,395.66716683826434,-8.924228488680473,-8.638696184573474,0.2923993312187725,-0.00032337736214102015,2.027198939538987,294.2681947170538,-1,0.41186873503069876,0.10258687941254478,0.002905828944772351
1.0000000000000002,395.2103082169303,-9.350116364680877,-8.51775752000808,0.3226674722369566,-0.00035685223897666306,2.0257405845811176,294.272461764985,-1,0.475616833158183,0.12477401861726682,0.003187404906374212
1.0500000000000003,394.73231135290547,-9.769758196312218,-8.392836632626798,0.3539322712072546,-0.0003914293639541472,2.0242126552082413,294.27693897947404,-1,0.5451605787295615,0.15029345391446045,0.0034771872785689262
1.1000000000000003,394.23349310854593,-10.182971578068711,-8.264267635129873,0.38611010747482205,-0.0004270162572901862,2.022616496373475,294.2816233487415,-1,0.6206488582891121,0.17943868983992728,0.003774413977977528
1.1500000000000004,393.71417904753037,-10.589590862555283,-8.132385689731448,0.41911709771584227,-0.00046352014870425196,2.0209534917581475,294.28651176753624,-1,0.7022153264180186,0.21251029445760555,0.004078323406445327
1.2000000000000004,393.1747025977266,-10.989467129595635,-7.997525340807047,0.452869513237167,-0.0005008484389287163,2.0192250598814474,294.2916010453342,-1,0.7899784868487014,0.24981513978927355,0.00438815802153414
1.2500000000000004,392.6154042175876,-11.382468075964535,-7.860018927377998,0.4872841772946214,-0.0005389091391207504,2.0174326502230264,294.29688791454225,-1,0.8840418410866704,0.2916656479876579,0.004703167711898445
1.3000000000000005,392.03663056993236,-11.768477830244882,-7.720195085606917,0.5222788398836308,-0.0005776112853598674,2.0155777393779433,294.3023690386676,-1,0.9844941002522893,0.3383790465211319,0.005022612958280944
1.3500000000000005,391.4387337067328,-12.14739669773621,-7.578377349826592,0.5577725278692243,-0.0006168653258721897,2.013661827262174,294.30804102041463,-1,1.0914094555423295,0.3902766354159974,0.005345767764502009
1.4000000000000006,390.8220702682723,-12.519140840684276,-7.434882858961313,0.593685868738755,-0.0006565834790829125,2.011686433385632,294.313900409674,-1,1.2048479024708025,0.4476830693663257,0.005671922346423654
1.4500000000000006,390.18700069977115,-12.883641899362015,-7.290021173554795,0.6299413866723551,-0.0006966800610537242,2.009653093208309,294.3199437113709,-1,1.3248556138784504,0.510925657275057,0.006000385570382391
1.5000000000000007,389.5338884882943,-13.240846559712994,-7.144093207019557,0.6664637700264154,-0.0007370717813046251,2.0075633545937057,294.3261673931422,-1,1.4514653565975266,0.5803336815369564,0.00633048713595381
1.5500000000000007,388.86309942246714,-13.590716073372626,-6.997390273192652,0.70318010970828,-0.0007776780064430523,2.005418774372268,294.33256789281467,-1,1.5846969466193273,0.6562377391173777,0.0066615795010900305
1.6000000000000008,388.175000877235,-13.93322573591475,-6.85019325084247,0.7400201082808043,-0.0008184209914218667,2.003220915026081,294.3391416256598,-1,1.7245577376317747,0.7389691062236552,0.006993039550622376
1.6500000000000008,387.4699611256087,-14.268364329136622,-6.7027718644374366,0.776916259969258,-0.0008592260786169536,2.0009713415045454,294.34588499140307,-1,1.8710431378681012,0.8288591281111521,0.007324270011816331
1.7000000000000008,386.74834867905275,-14.596133533100259,-6.555384079272741,0.8138040020470663,-0.000900021865251414,1.998671618179324,294.352794380969,-1,2.0241371503297727,0.926238635316099,0.007654700623083586
1.7500000000000009,386.0105316578878,-14.916547313498512,-6.408275607965069,0.8506218383487267,-0.0009407403399939667,1.996323305945381,294.35986618294527,-1,2.1838129316114263,1.031437387364629,0.007983789064082676
1.800000000000001,385.2568771928074,-15.22963128971718,-6.261679524373365,0.8873114358964815,-0.000981316989822661,1.9939279594735457,294.3670967897527,-1,2.3500333647568117,1.144783544773835,0.008311021657269263
1.850000000000001,384.4877508583463,-15.535422088726612,-6.115815980188665,0.9238176958313045,-0.0010216908784705962,1.9914871246186736,294.37448260351044,-1,2.522751641806596,1.2666031699379203,0.008635913852489218
1.900000000000001,383.7035161388866,-15.833966689664486,-5.9708920187574535,0.9600888000085948,-0.0010618046979581602,1.989002335986222,294.3820200415882,-1,2.7019118519555594,1.3972197572819742,0.008958010507448176
1.950000000000001,382.9045339275532,-16.125321763672396,-5.82710148015817,0.9960762347553246,-0.0011016047948671113,1.9864751146588184,294.3897055418389,-1,2.887449571512565,1.5369537928686774,0.009276885977850273
2.000000000000001,382.09116205813064,-16.409553013229097,-5.684624991133982,1.0317347933896317,-0.0011410411731271066,1.9839069660833086,294.39753556751,-1,3.0792924521463916,1.6861223434601513,0.009592144031691336
2.0500000000000007,381.26375486992765,-16.686734514888602,-5.543630033190139,1.0670225591776323,-0.0011800674751668875,1.9812993781177046,294.4055066118303,-1,3.2773608041990974,1.8450386748687884,0.00990341760263529
2.1000000000000005,380.42266280533073,-16.95694806898772,-5.404271081982378,1.1019008704477382,-0.0012186409433326592,1.978653819236523,294.4136152022747,-1,3.481568172151449,2.014011899277552,0.01021036839761757
2.1500000000000004,379.5682320396175,-17.220282559539957,-5.266689811044737,1.1363342696023138,-0.0012567223634978248,1.9759717368921337,294.42185790450776,-1,3.691821899627999,2.193346651072038,0.010512686373827504
2.2,378.70080414244933,-17.476833327185975,-5.13101535292036,1.1702904377626941,-0.0012942759927840183,1.9732545560289723,294.4302313260117,-1,3.908023681628929,2.383342790603461,0.010810089100046499
2.25,377.8207157703265,-17.726701557728813,-4.997364610856722,1.203740116759106,-0.0013312694732863057,1.970503677746798,294.438732119404,-1,4.130070101968594,2.584295135193399,0.011102321016983276
2.3,376.9282983891721,-17.969993688448636,-4.865842614396475,1.2366570201345297,-0.0013676737336484168,1.9677204781085846,294.44735698545077,-1,4.357853154184098,2.7964932165972165,0.011389152610775163
2.3499999999999996,376.0238780261092,-18.20682083406993,-4.736542912425911,1.2690177347737923,-0.0014034628802700052,1.9649063070881334,294.4561026757861,-1,4.591260744448858,3.0202210640630405,0.011670379513238037
2.3999999999999995,375.1077750494088,-18.43729823394615,-4.609547997524444,1.3008016146987391,-0.0014386140798500278,1.9620624876520767,294.46496599534413,-1,4.830177175284234,3.255757012056368,0.011945821541768778
2.4499999999999993,374.1803039755168,-18.661544721735186,-4.484929755780679,1.3319906684897116,-0.0014731074348811747,1.9591903149705918,294.4739438045158,-1,5.074483609105305,3.5033735316661065,0.012215321691053512
2.499999999999999,373.2417733020093,-18.879682218564877,-4.3627499365938345,1.362569441705154,-0.001506925853612508,1.9562910557509008,294.4830330210399,-1,5.324058510863941,3.7633370846653373,0.012478745087931833
2.549999999999999,372.29248536528434,-19.091835250432645,-4.243060637355357,1.3925248955770544,-0.0015400549158933806,1.9533659476873926,294.49223062164026,-1,5.578778069262505,4.035907999168498,0.012735977919928192
2.5999999999999988,371.33273622176483,-19.298130490347443,-4.12590479829599,1.421846283162206,-0.0015724827362036346,1.9504161990221154,294.5015336434202,-1,5.838516596204577,4.321340365805175,0.012986926347103599
2.6499999999999986,370.3628155513685,-19.49869632550654,-4.011316703181912,1.450525024029587,-0.0016041998250648285,1.9474429882092712,294.5109391850267,-1,6.1031469043249,4.619881953318411,0.01323151540601618
2.6999999999999984,369.38300658199074,-19.693662449603682,-3.8993224819428427,1.478554578464206,-0.0016351989499167026,1.9444474636773499,294.5204444075966,-1,6.372540662599325,4.931774142491517,0.013469687913721218
2.7499999999999982,368.3935860337459,-19.883159480189214,-3.7899406117106684,1.5059303220687665,-0.0016654749964336083,1.9414307436825355,294.53004653549647,-1,6.646568730177315,5.257251877310933,0.013701403378899553
2.799999999999998,367.39482408172006,-20.06731860084589,-3.683182413133558,1.5326494215477593,-0.001695024831148639,1.9383939162471113,294.5397428568693,-1,6.925101468705051,5.596543632282993,0.013926636926386814
2.849999999999998,366.3869843360037,-20.246271227806133,-3.579052539204846,1.5587107123649382,-0.0017238471661496168,1.9353380391766715,294.5495307239991,-1,7.2080090335168805,5.949871394838541,0.014145378240591477
2.8999999999999977,365.37032383779564,-20.420148700516346,-3.4775494542042953,1.5841145788754383,-0.001751942426511897,1.9322641401500877,294.5594075535071,-1,7.495161644167749,6.317450661780657,0.014357630532543401
2.9499999999999975,364.34509307039394,-20.589081995550824,-3.378665900689583,1.6088628374486431,-0.0017793126210387752,1.9291732168763511,294.56937082638956,-1,7.786429834859944,6.699490448756349,0.014563409534609764
2.9999999999999973,363.3115359839254,-20.75320146319064,-3.2823893527962884,1.6329586230177195,-0.001805961216791594,1.926066237312574,294.57941808791014,-1,8.08168468538506,7.096193311762475,0.014762742526255812
3.049999999999997,362.26989003269784,-20.912636585910818,-3.1887024544035745,1.6564062794169154,-0.0018318930178089082,1.9229441399376612,294.5895469473575,-1,8.380798033257369,7.507755379728535,0.014955667393615407
3.099999999999997,361.22038622410105,-21.06751575796081,-3.0975834409998564,1.6792112537983734,-0.0018571140483373666,1.919807834076366,294.59975507767956,-1,8.6836426677588,7.93436639725394,0.015142231725071583
3.149999999999997,360.16324917802257,-21.217966085177675,-3.009006544337322,1.701379995356496,-0.001881631440826503,1.9166582002686832,294.6100402150038,-1,8.990092506649422,8.376209776614145,0.015322491944531117
3.1999999999999966,359.09869719578967,-21.364113204137492,-2.9229423791963596,1.7229198585297856,-0.001905453328875369,1.9134960906797625,294.62040015805536,-1,9.300022756321582,8.83346265818842,0.015496512483607972
3.2499999999999964,358.026942337693,-21.506081119727046,-2.8393583117910746,1.7438390107974922,-0.0019285887452607639,1.9103223295457847,294.63083276748125,-1,9.613310056191755,9.306295978501254,0.015664364993508734
3.2999999999999963,356.9481905081947,-21.64399206020383,-2.7582188095356583,1.76414634514121,-0.0019510475251246408,1.907137713651475,294.6413359650906,-1,9.929832608132463,9.794874545109359,0.01582612759703535
3.349999999999996,355.8626415479695,-21.777966348806792,-2.679485772059288,1.7838513971995298,-0.0019728402143517694,1.9039430128351844,294.65190773301964,-1,10.2494702917482,10.299357117606375,0.015981884180786794
3.399999999999996,354.7704893319748,-21.908122290982053,-2.603118843505227,1.8029642671068211,-0.001993977983127786,1.9007389705177171,294.6625461128299,-1,10.572104766295151,10.81989649405746,0.01613172372734758
3.4499999999999957,353.6719218727928,-22.034576076296013,-2.5290757062792215,1.8214955459748265,-0.0020144725446319353,1.8975263042513253,294.6732492045466,-1,10.897619560035082,11.356639602215715,0.01627573968699655
3.4999999999999956,352.5671214285323,-22.157441694122213,-2.457312356523997,1.8394562469477886,-0.0020343360787878823,1.8943057062855337,294.6840151656466,-1,11.225900147800083,11.909727594911594,0.01641402938825004
3.5499999999999954,351.45626461462405,-22.27683086220682,-2.3877833616921196,1.8568577407379399,-0.0020535811609695585,1.8910778441466838,294.6948422100004,-1,11.556834017527446,12.479295949044783,0.016546693486368204
3.599999999999995,350.33952251888786,-22.3928529672403,-2.320442100669701,1.8737116955281117,-0.002072220695536797,1.8878433612283259,294.7057286067767,-1,11.890310726503404,13.065474567645555,0.016673835448797896
3.649999999999995,349.21706081929216,-22.505615016588795,-2.2552409869698495,1.8900300211115948,-0.0020902678540571317,1.8846028773897952,294.71667267931485,-1,12.226221948031382,13.668387884508926,0.016795561076398912
3.699999999999995,348.08903990386824,-22.615221600367214,-2.1921316755683673,1.9058248171259635,-0.0021077360180552927,1.8813569895605384,294.7276728039709,-1,12.56446150921535,14.288154970940095,0.016911978059198376
3.7499999999999947,346.9556149922824,-22.721774863067047,-2.1310652539966357,1.9211083252269614,-0.002124638726120188,1.8781062723479283,294.73872740894205,-1,12.904925420522146,14.924889644183532,0.01702319556533975
3.7999999999999945,345.81693625860606,-22.825374483983964,-2.0719924183383185,1.935892885040611,-0.0021409896251903954,1.8748512786465341,294.7498349730756,-1,13.247511897758839,15.578700577140555,0.017129323861834647
3.8499999999999943,344.67314895486334,-22.926117665723933,-2.0148636347994007,1.9501908937259829,-0.002156802425832834,1.871592540246972,294.76099402466565,-1,13.59212137707256,16.24969140901134,0.017230473965686027
3.899999999999994,343.5243935349677,-23.02409913010071,-1.9596292875355399,1.9640147689774405,-0.002172090861325316,1.8683305684426532,294.7722031402423,-1,13.938656523551108,16.93796085652693,0.017326757323927387
3.949999999999994,342.3708057786959,-23.119411120772117,-1.906239813428205,1.9773769152933003,-0.002186868650351557,1.8650658546328918,294.7834609433573,-1,14.287022233973374,17.64360282546504,0.017418285521113266
3.999999999999994,341.2125169153767,-23.21214341199722,-1.8546458245020743,1.9902896933375986,-0.0022011494631170056,1.861798870921017,294.7947661033688,-1,14.637125634229355,18.36670652217011,0.017505170012799012
4.049999999999994,340.0496537470035,-23.302383322930822,-1.8047982186720262,2.0027653922226887,-0.0022149468906949355,1.8585300707062558,294.80611733422927,-1,14.988876071900574,19.10735656482336,0.01758752188356097
4.099999999999993,338.8823387705076,-23.390215736905777,-1.7566482794990996,2.01481620454264,-0.0022282744174147782,1.8552598892683028,294.81751339327934,-1,15.342185104463185,19.865633094232454,0.017665451628130553
4.149999999999993,337.7106902989553,-23.475723125186878,-1.7101477656220538,2.026454203990595,-0.002241145396108168,1.8519887443436194,294.828953080049,-1,15.696966483548094,20.641611883932732,0.017739068954245412
4.199999999999993,336.53482258145783,-23.558985574712633,-1.6652489905151153,2.0376913253972537,-0.0022535730260326184,1.848717036692618,294.84043523507023,-1,16.053136135665234,21.435364449413065,0.01780848260585696
4.249999999999993,335.3548459216057,-23.640080819372823,-1.6219048932038174,2.0485393470323436,-0.002265570333297933,1.8454451506570113,294.8519587387017,-1,16.410612139772724,22.246958156299012,0.01787380020537448
4.299999999999993,334.17086679426137,-23.719084274400323,-1.5800691005500287,2.059009875016119,-0.002277150153626194,1.8421734547066861,294.8635225099682,-1,16.76931470204615,23.076456327344484,0.01793512811367128
4.3499999999999925,332.98298796056423,-23.79606907348506,-1.5396959816947753,2.0691143296935888,-0.002288325117282417,1.8389023019755848,294.87512550541624,-1,17.129166128178678,23.923918348100106,0.017992571306626414
4.399999999999992,331.7913085810209,-23.87110610824625,-1.5007406952237634,2.0788639338300787,-0.002299107636019501,1.8356320307861373,294.88676671798646,-1,17.490090793519197,24.789399771142556,0.018046233267026045
4.449999999999992,330.5959243265716,-23.944264069726042,-1.4631592295958882,2.0882697024929158,-0.002309509891887936,1.832362965161888,294.898445175906,-1,17.852015111333202,25.672952418763867,0.018096215890700252
4.499999999999992,329.3969274875386,-24.01560949159354,-1.4269084373499332,2.0973424344902845,-0.0023195438277676533,1.82909541532802,294.9101599415996,-1,18.21486749944969,26.57462448403344,0.01814261940582436
4.549999999999992,328.19440708037945,-24.0852067947725,-1.3919460635791818,2.106092705244691,-0.002329221139486477,1.8258296781995569,294.9219101106221,-1,18.57857834553702,27.494460630158105,0.018185542304366666
