time(s),altitude(m),speed(m/s),acceleration(m/s/s),body drag(N),airfoil drag(N),atm pressure(Kg/m2),air temp(K),fin deflection(°),z agnular rate(rad/s),z angle(rad),z torque(N/m2)
0.05,399.9754825,-0.49035000000000006,-9.807,0.0,0.0,2.040346940659153,294.22999999999996,0,4.020725428779357e-05,2.0103627143896787e-06,8.197197612190331e-08
0.1,399.92645732267835,-0.9805035464327516,-9.80307092865503,0.0009811347482507457,1.133087991784686e-06,2.040263697396347,294.23024027149995,0,0.00020096528420557625,1.2058626924668492e-05,3.2774318026051514e-07
0.15000000000000002,399.8529539171265,-1.4700681110369036,-9.791291292083038,0.003922646812505411,4.530166735187771e-06,2.0400972645934616,294.2307207182377,0,0.000562303433204553,4.017379858489614e-05,7.366730866441931e-07
0.2,399.75502127970685,-1.9586527483931992,-9.771692747125915,0.008816631111671766,1.0182106849687708e-05,2.0398477829139687,294.23144105161214,0,0.0012036616369478614,0.00010035688043228921,1.307560048406337e-06
0.25,399.63272780771194,-2.445869439897625,-9.744333830088516,0.015648470450569173,1.807202730200922e-05,2.039515479532956,294.2324007914589,0,0.002203618993579943,0.00021053783011128636,2.0386490451214715e-06
0.3,399.48616108678453,-2.931334418548555,-9.709299573018596,0.024396931339285777,2.817540606550338e-05,2.0391006673874763,294.2335992674844,0,0.0036396281053769604,0.00039251923538013436,2.9276434491274557e-06
0.35,399.3154276135429,-3.414669464832105,-9.666700925671007,0.035034308335430836,4.046024681740614e-05,2.0386037441116582,294.2350356213495,0,0.005587757095000184,0.0006719070901301436,3.971720672014728e-06
0.39999999999999997,399.12065245532625,-3.895503164333168,-9.616673990021255,0.047526615194992294,5.488729969418492e-05,2.0380251906643028,294.23670880938727,0,0.008122441108019931,0.0010780291455311402,5.167551504627416e-06
0.44999999999999996,398.9019788494183,-4.373472118159471,-9.559379076526056,0.06183382053503328,7.141033345249506e-05,2.037365569659022,294.2386176059378,0,0.011316244999949644,0.0016438413955286225,6.511322919326631e-06
0.49999999999999994,398.6595677445266,-4.848222097834015,-9.49499959349089,0.07791012517151766,8.997645575970085e-05,2.036625523409178,294.24076060727566,0,0.015239638772818432,0.002405823334169544,7.99876406293331e-06
0.5499999999999999,398.3935972876778,-5.319409136976841,-9.423740782856514,0.09570427780809648,0.00011052647777496277,2.035805771701957,294.2431362361036,0,0.019960787175753607,0.0034038626929572243,9.625175133405044e-06
0.6,398.1042622600354,-5.786700552848046,-9.345828317424116,0.11515992532528144,0.00013299531868944623,2.0349071093177566,294.24574274658073,0,0.02554535471886419,0.004681130428900434,1.1385458803487427e-05
0.65,397.79177346545305,-6.249775891646738,-9.261506775973839,0.13621599356105984,0.00015731244548033437,2.033930403312789,294.2485782298516,0,0.03205632717284853,0.00628394678754286,1.3274153830752985e-05
0.7000000000000001,397.456357075836,-6.708327792340397,-9.171038013873165,0.15880709418890473,0.00018340234280406935,2.0328765900842085,294.25164062003853,0,0.039553850441271014,0.008261639309606411,1.528547047588682e-05
0.7500000000000001,397.09825393759996,-7.162062764720714,-9.07469944760635,0.18286395309069922,0.0002111850077135334,2.031746672238338,294.25492770065676,0,0.048095087501507885,0.010666393684681806,1.7413327339932464e-05
0.8000000000000002,396.7177188436835,-7.6107018783295945,-8.97278227217762,0.20831385549186168,0.00024057646373347617,2.030541715283535,294.2584371114115,0,0.05773409391708535,0.013553098380536074,1.965138922645763e-05
0.8500000000000002,396.31501977569064,-8.053981359857119,-8.865589630550488,0.23508110307360985,0.00027148928876804043,2.029262844169987,294.2621663553319,0,0.06852171223158128,0.01697918399211514,2.1993105636077323e-05
0.9000000000000002,395.8904371208123,-8.491653097566697,-8.753434754191556,0.26308747830076995,0.0003038331513413403,2.027911239699209,294.26611280619824,0,0.08050548536534707,0.021004458260382494,2.4431749508187153e-05
0.9500000000000003,395.44426286820044,-8.923485052236915,-8.636639093404343,0.29225271129913194,0.0003375153497824465,2.026488134826275,294.270273716216,0,0.09372958895373901,0.025690937708069444,2.6960455837700163e-05
1.0000000000000002,394.9767997894499,-9.349261575011296,-8.515530455487635,0.3224949447789374,0.00037244134915389963,2.0249948108778084,294.27464622389164,0,0.10823478239178569,0.03110267682765873,2.957225981253144e-05
1.0500000000000003,394.48836060777967,-9.76878363340424,-8.390441167858873,0.35373119272430126,0.0004085153109806552,2.023432593708558,294.27922736206335,0,0.1240583781874263,0.037305595737030045,3.226013413994006e-05
1.1000000000000003,393.979267160404,-10.181868947513038,-8.261706282175954,0.3858777888448559,0.0004456406111556763,2.0218028498189367,294.2840140660437,0,0.14123422907547395,0.04436730719080374,3.5017025255958525e-05
1.1500000000000004,393.44984955844285,-10.588352039223167,-8.129661834202594,0.41885082110758165,0.0004837203417698806,2.020106982455275,294.28900318182804,0,0.15979273220879048,0.05235694380124327,3.78358881413181e-05
1.2000000000000004,392.90044534854985,-10.988084197859548,-7.994643172727597,0.4525665490250731,0.0005226577930279272,2.0183464277137317,294.29419147432725,0,0.17976084962294908,0.061344986282390726,4.070971949879432e-05
1.2500000000000004,392.33139868023363,-11.380933366324655,-7.85698336930215,0.48694180076260535,0.0005623569118572391,2.0165226506678247,294.2995756355842,0,0.20116214406670546,0.071403093485726,4.3631589080033406e-05
1.3000000000000005,391.7430594826201,-11.766783952271496,-7.717011718936819,0.5218943475315098,0.0006027227342855532,2.0146371415384365,294.3051522929337,0,0.22401682920334537,0.08260393494589327,4.6594668983975354e-05
1.3500000000000005,391.13578265415595,-12.145536569283259,-7.575052340235272,0.5573432531520396,0.000643661789142334,2.012691411923918,294.3109180170703,0,0.24834183311755345,0.09502102660177095,4.959226078329884e-05
1.4000000000000006,390.5099272684874,-12.517107713371644,-7.4314228817677055,0.5932091970869514,0.0006850824711221811,2.0106869911065837,294.31686932998923,0,0.2741508740086736,0.10872857030220463,5.2617820369256184e-05
1.4500000000000006,389.8658557994692,-12.8814293803633,-7.286433339833129,0.6294147696599923,0.000726895381725279,2.008625422450495,294.3230027127688,0,0.3014545469136533,0.1238012976478873,5.5664980438286867e-05
1.5000000000000007,389.20393336797315,-13.238448629920983,-7.14038499115363,0.6658847385745394,0.000769013637053112,2.006508259903976,294.3293146131652,0,0.3302604202808879,0.1403143186619317,5.8727570575401896e-05
1.5500000000000007,388.5245270128708,-13.588127102046428,-6.993569442508905,0.7025462862308934,0.0008113531418802719,2.0043370646188112,294.33580145299385,0,0.3605731412087064,0.15834297572236702,6.179963491909985e-05
1.6000000000000008,387.8280049882738,-13.930440491940242,-6.84626779787628,0.7393292177010908,0.0008538328298393699,2.0021134016966036,294.3424596352738,0,0.3923945481682983,0.17796270313078194,6.487544742016683e-05
1.6500000000000008,387.114736088821,-14.265377989055557,-6.698749942306287,0.7761661395534873,0.0008963748699410767,1.9998388370712488,294.3492855511149,0,0.4257237900492747,0.1992488926332457,6.794952473185809e-05
1.7000000000000008,386.3850890045169,-14.59294168608304,-6.551273940549702,0.812992610022573,0.000938904840001489,1.997514934535037,294.35627558632956,0,0.46055745039548973,0.22227676515302017,7.101663679146797e-05
1.7500000000000009,385.63943170634434,-14.913145963451415,-6.404085547367471,0.8497472612902707,0.0009813518678617424,1.9951432529144646,294.3634261277557,0,0.4968896757378691,0.2471212489399136,7.407181517304658e-05
1.800000000000001,384.878130863608,-15.226016854726725,-6.257417825506185,0.8863718948818953,0.0010236487415584204,1.9927253434004426,294.3707335692778,0,0.5347123069784231,0.27385686428883477,7.711035930795917e-05
1.850000000000001,384.1015512937054,-15.531591398052264,-6.111490866510767,0.9228115513824711,0.001065731989837187,1.9902627470362835,294.3781943175366,0,0.574015012833982,0.30255761493053385,8.012784068411599e-05
1.900000000000001,383.31005544478063,-15.829916978495879,-5.966511608872307,0.959014555847327,0.0011075419345963464,1.9877569923656093,294.38580479732167,0,0.614785424408136,0.33329688615094066,8.312010514608351e-05
1.950000000000001,382.50400291148713,-16.12105066586936,-5.822673747469662,0.994932540415582,0.0011490227170025938,1.9852095932411373,294.3935614566411,0,0.6570092700240913,0.36614734965214524,8.608327342702387e-05
2.000000000000001,381.683749983874,-16.405058552262005,-5.680157727852862,1.0305204457376451,0.0011901222991395977,1.982622046794233,294.4014607714674,0,0.7006705095184425,0.4011808751280674,8.901374004964554e-05
2.0500000000000007,380.8496492292143,-16.68201509319339,-5.539130818627644,1.0657365028999557,0.0012307924431333352,1.9799958315641242,294.40949925015804,0,0.7457514672650631,0.43846844849132055,9.190817073724918e-05
2.1000000000000005,380.0020491064171,-16.952002455944637,-5.399747255024969,1.1005421975740093,0.0012709886697486986,1.9773324057847497,294.4176734375537,0,0.7922329632683839,0.4780800966547397,9.476349847771817e-05
2.1500000000000004,379.14129361250315,-17.215109878278007,-5.262148446667363,1.1349022181346866,0.0013106701984726494,1.9746332058264369,294.4259799187571,0,0.8400944417353142,0.5200848187415055,9.757691838314038e-05
2.2,378.26772196048285,-17.471433040406275,-5.126463242565365,1.1687843894875658,0.0013497998710930374,1.9718996447888415,294.43441532259743,0,0.8893140966041361,0.5645505235717123,0.00010034588148587538
2.25,377.3816682878463,-17.72107345273032,-4.992808246480873,1.2021595943190295,0.0013883440607523165,1.9691331112409938,294.44297632478725,0,0.9398689935761164,0.6115439732505181,0.00010306808760852255
2.3,376.48346139476985,-17.9641378615288,-4.861288175969602,1.2350016834391948,0.0014262725684048366,1.9663349681037172,294.4516596507791,0,0.9917351882607405,0.6611307326635552,0.00010574147744061985
2.3499999999999996,375.57342451104677,-18.200737674461333,-4.731996258650638,1.2672873768288022,0.0014635585085383694,1.963506551669258,294.46046207833126,0,1.0448878401078359,0.7133751246689469,0.00010836422394922618
2.3999999999999995,374.6518750906749,-18.430988407438196,-4.605014659537251,1.2989961569297492,0.0015001781859380143,1.960649170752566,294.46938043979173,0,1.0993013218590255,0.7683401907618982,0.00011093472324401567
2.4499999999999993,373.719124632969,-18.655009154117664,-4.480414933589381,1.3301101556374784,0.0015361109651765318,1.9577641059683777,294.47841162411135,0,1.154949324306594,0.8260876569772279,0.00011345158501033315
2.499999999999999,372.77547852901813,-18.872922079017933,-4.358258498005351,1.3606140363642503,0.0015713391344121647,1.954852609128016,294.4875525785969,0,1.2118049561997457,0.8866779047872151,0.00011591362261600733
2.549999999999999,371.82123593226936,-19.084851934975404,-4.238597119149434,1.390494872447676,0.0016058477649656953,1.9519159027496766,294.4968003104156,0,1.2698408391862177,0.950169946746526,0.00011831984298974919
2.5999999999999988,370.8566896519971,-19.290925605445675,-4.121473409405456,1.419742023080601,0.0016396245680349675,1.9489551796758302,294.5061518878637,0,1.3290291977212045,1.0166214066325863,0.00012066943636082958
2.6499999999999986,369.8821260684007,-19.491271671928025,-4.006921329646964,1.4483470078384695,0.0016726597497896773,1.9459716027913734,294.5156044414104,0,1.3893419439155386,1.0860885038283632,0.00012296176594155743
2.6999999999999984,368.89782506807074,-19.68602000659883,-3.894966693416076,1.4763033807800077,0.0017049458659733998,1.9429663048361212,294.5251551645297,0,1.450750757331082,1.1586260416949172,0.00012519635762598067
2.7499999999999982,367.90405999856756,-19.875301390063832,-3.785627669300024,1.5036066049979686,0.0017364776770253819,1.9399403883053083,294.53480131433287,0,1.5132271597634162,1.234287399683088,0.00012737288977030385
2.799999999999998,366.9010976408684,-20.05924715398294,-3.6789152783821972,1.530253928399828,0.0017672520046227705,1.9368949254318406,294.544540212014,0,1.576742585080262,1.3131245289371012,0.00012949118311283576
2.849999999999998,365.8891981984592,-20.237988848183917,-3.574833884019558,1.5562442614046748,0.0017972675904358122,1.9338309582441646,294.5543692431195,0,1.6412684442088223,1.3951879511475422,0.00013155119088391486
2.8999999999999977,364.8686153018711,-20.411657931761777,-3.4733816715571884,1.5815780571529179,0.001826524957785036,1.9307494986937783,294.5642858576551,0,1.706776185386534,1.480526760416869,0.000133552989149259
2.9499999999999975,363.8395960274932,-20.580385487558345,-3.3745511159313812,1.6062571947403637,0.00185502627679121,1.9276515288465697,294.57428757004163,0,1.7732373498078051,1.5691886279072593,0.00013549676742359037
2.9999999999999973,362.8023809295267,-20.744301959329995,-3.278329435432979,1.630284865908239,0.001882775233516482,1.9245380011323796,294.58437195893055,0,1.840623622814354,1.661219809047977,0.00013738281958521704
3.049999999999997,361.7572040839847,-20.903536910840078,-3.1846990302016884,1.6536654655460692,0.00190977690350889,1.9214098386473968,294.59453666689063,0,1.9089068807890153,1.7566651530874278,0.00013921153511653678
3.099999999999997,360.7042931436819,-21.058218806055017,-3.093637904298766,1.676404486295226,0.0019360376300826348,1.9182679355042087,294.6047793999769,0,1.97805923392254,1.8555681147835548,0.00014098339069016256
3.149999999999997,359.64386940320304,-21.208474809578,-3.005120070459684,1.6985084174774858,0.001961564907593198,1.9151131572245856,294.61509792719187,0,2.048053065030224,1.957970768035066,0.00014269894211556394
3.1999999999999966,358.576147872882,-21.354430606421005,-2.9191159368601056,1.719984648515074,0.0019863672698995686,1.9119463411703026,294.6254900798486,0,2.118861064600366,2.0639138212650843,0.0001443588166567618
3.2499999999999964,357.50133736087236,-21.4962102401929,-2.8355926754379137,1.7408413769563762,0.0020104541841454333,1.9087682970075648,294.6359537508457,0,2.190456262259801,2.173436634378074,0.00014596370572769656
3.2999999999999963,356.419640562434,-21.633935968768007,-2.7545145715020984,1.7610875211745385,0.002033835949936973,1.9055798072008416,294.6464868938634,0,2.2628120548433004,2.2865772371202393,0.00014751435796839802
3.349999999999996,355.33125415560926,-21.767728136494327,-2.6758433545264104,1.7807326377644508,0.0020565236039467062,1.9023816275321697,294.6570875224881,0,2.3359022312536295,2.403372348682921,0.00014901157270199615
3.399999999999996,354.2363689025091,-21.897705062002977,-2.5995385101730193,1.799786843626815,0.002078528829930325,1.899174487642224,294.667753709275,0,2.4097009942977703,2.5238573983978094,0.00015045619376990974
3.4499999999999957,353.1351697554747,-22.02398294068898,-2.5255575737201017,1.8182607426958683,0.0020998638741063745,1.8959590915897118,294.6784835847554,0,2.484182979682341,2.6480665473819265,0.00015184910374020524
3.4999999999999956,352.0278359674273,-22.146675760947893,-2.453856405178241,1.8361653572396233,0.0021205414658166184,1.8927361184258704,294.68927533639635,0,2.559323272347818,2.7760327109993175,0.000153191218482114
3.5499999999999954,350.91454120576367,-22.265895233271657,-2.3843894464752857,1.853512063637821,0.0021405747433576043,1.8895062227810786,294.7001272075192,0,2.6350974203168853,2.9077875820151617,0.00015448348209799647
3.599999999999995,349.7954536691972,-22.381750731330097,-2.3171099611687858,1.8703125325229526,0.0021599771848510225,1.8862700354608344,294.7110374961835,0,2.711481446227279,3.043361654326526,0.000155726862202638
3.649999999999995,348.6707362069876,-22.494349244190644,-2.251970257210907,1.8865786731532719,0.002178762544001492,1.8830281640485456,294.72200455404186,0,2.7884518567139667,3.1827842471622243,0.0001569223455386082
3.699999999999995,347.5405464400447,-22.603795338857832,-2.1889218933437586,1.9023225818734852,0.002196944790575098,1.879781193512794,294.7330267851715,0,2.8659856497995233,3.3260835296522004,0.00015807093391550776
3.7499999999999947,346.40503688342744,-22.710191132345066,-2.127915869744677,1.917556494508411,0.00221453805542002,1.876529686816944,294.74410264488756,0,2.944060320445265,3.4732865456744637,0.0001591736404602278
3.7999999999999945,345.26435506980124,-22.813636272523684,-2.0689028035723425,1.9322927425270728,0.00223155657984154,1.8732741855291415,294.7552306385424,0,3.022653864409119,3.6244192388949195,0.00016023148616483971
3.8499999999999943,344.11864367344987,-22.91422792702803,-2.0118330900869204,1.9465437128091327,0.0022480146691372985,1.8700152104309269,294.7664093203159,0,3.101744780549492,3.779506477922394,0.0001612454967183962
3.899999999999994,342.96804063447337,-23.012060779529595,-1.9566570500312697,1.9603218108420881,0.0022639266500946624,1.8667532621228724,294.7776372920002,0,3.181312071707577,3.938572081507773,0.00016221669960873503
3.949999999999994,341.812679282837,-23.107227032727966,-1.9033250639674275,1.9736394271758932,0.0022793068322500025,1.8634888216257925,294.7889132017821,0,3.261335244293674,4.101638843722457,0.00016314612148032016
3.999999999999994,340.65268846196494,-23.19981641744112,-1.8517876942630833,1.9865089069615198,0.0022941694727095395,1.8602223509762517,294.80023574302817,0,3.341794306696303,4.268728559057272,0.00016403478573420838
4.049999999999994,339.4881926516043,-23.289916207212034,-1.8019957954183088,1.9989425224010902,0.002308528744332692,1.8569542938152022,294.8116036530727,0,3.422669766626109,4.439862047388577,0.0001648837103563822
4.099999999999993,338.3193120897102,-23.377611237882707,-1.7539006134134407,2.0109524479395584,0.002322398707081569,1.8536850759687553,294.82301571201424,0,3.5039426274999412,4.615059178763574,0.00016569390596092232
4.149999999999993,337.1461628931292,-23.462983931620006,-1.7074538747459638,2.0225507380311654,0.0023357932823440046,1.8504151060201812,294.8344707415208,0,3.5855943839640094,4.794338897961775,0.00016646637403479786
4.199999999999993,335.96885717688366,-23.546114324910405,-1.6626078658080345,2.033749307317949,0.0023487262300422146,1.8471447758723605,294.8459676036473,0,3.6676070166486845,4.977719248794209,0.00016720210537140732
4.249999999999993,334.78750317188,-23.627080100072266,-1.6193155032371855,2.044559913062359,0.0023612111283446637,1.8438744613000186,294.8575051996665,0,3.749962986241427,5.1652173981062806,0.00016790207868041287
4.299999999999993,333.60220534088677,-23.705956619864857,-1.5775303958518379,2.0549941396812357,0.002373261355804743,1.8406045224911702,294.86908246891556,0,3.8326452269584133,5.356849659454201,0.0001685672593618471
4.3499999999999925,332.41306449264664,-23.782816964802887,-1.537206898760589,2.0650633852340965,0.0023848900757564304,1.8373353045772847,294.88069838765927,0,3.915637139489771,5.55263151642869,0.0001691985984329415
4.399999999999992,331.220177894006,-23.857731972813397,-1.4983001602102384,2.0747788497246367,0.0023961102228039883,1.834067138151779,294.89235196797205,0,3.9989225834879094,5.752577645603085,0.00016979703159661187
4.449999999999992,330.023639379961,-23.930770280899047,-1.4607661617129875,2.0841515250805034,0.00240693449124985,1.8308003397765111,294.9040422566387,0,4.0824858696632385,5.956701939086247,0.00017036347844103785
4.499999999999992,328.82353946153614,-24.001998368497436,-1.4245617519677545,2.0931921866827494,0.0024173753253122023,1.8275352124760236,294.91576833407635,0,4.1663117515466555,6.165017526663579,0.00017089884176027932
4.549999999999992,327.6199654314236,-24.0714806022507,-1.3896446750652256,2.1019113863227026,0.0024274449109910486,1.824272046219346,294.9275293132769,0,4.250385416973477,6.377536797512253,0.00017140400698638397
